#F W_scan_0.10.spec

#S 1 Undulator spectrum calculation using SRW
#UD name = EBS_OB
#UD ElectronBeamDivergenceH = 5.2e-06
#UD ElectronBeamDivergenceV = 1.4e-06
#UD ElectronBeamSizeH = 2.72e-05
#UD ElectronBeamSizeV = 3.4e-06
#UD ElectronEnergySpread = 0.001
#UD ElectronCurrent = 0.2
#UD ElectronEnergy = 6.0
#UD Kv = 1.68
#UD NPeriods = 222
#UD PeriodID = 0.018
#UD distance = 30.0
#UD gapH = 0.0001
#UD gapV = 0.0001
#UD photonEnergyMin =  2000.000000
#UD photonEnergyMax =  50000.000000
#UD photonEnergyPoints =  500
#UD B0 =  0.999576
#N 4 
#L PhotonEnergy[eV]  PhotonWavelength[A]  Flux[phot/sec/0.1%bw]  Spectral Power[W/eV]
 2000.0   6.1992098698203595    592557056.0    9.493810616132764e-08
 2096.1923847695389   5.9147336998859643    853905024.0    1.368106665836463e-07
 2192.3847695390782   5.6552207039129048    90418120.0    1.448657979606889e-08
 2288.5771543086171   5.4175231611915233    441328416.0    7.070860702098967e-08
 2384.7695390781564   5.1990012185552255    1034902080.0    1.6580959173932913e-07
 2480.9619238476953   4.9974244346370913    252904176.0    4.0519715808988846e-08
 2577.1543086172346   4.810895373313155    268328240.0    4.2990923282841145e-08
 2673.3466933867735   4.6377896927141817    1150296832.0    1.8429786912107055e-07
 2769.5390781563128   4.4767087193058739    512635968.0    8.21333362910777e-08
 2865.7314629258517   4.3264415734830202    114907488.0    1.8410209082845657e-08
 2961.9238476953906   4.1859346752914197    1174439808.0    1.881660002914441e-07
 3058.1162324649299   4.0542670052953591    855807168.0    1.371154236482658e-07
 3154.3086172344692   3.9306298920461993    28316054.0    4.536731971211032e-09
 3250.5010020040081   3.8143103884591354    1088060160.0    1.7432645503759074e-07
 3346.693386773547   3.7046775150183944    1248599808.0    2.0004774211129688e-07
 3442.8857715430859   3.6011708091273102    60713068.0    9.72730581266406e-09
 3539.0781563126252   3.5032907418350612    898762688.0    1.4399765663609648e-07
 3635.2705410821645   3.4105906560533175    1645379840.0    2.6361891119836447e-07
 3731.4629258517034   3.3226699517082268    258391824.0    4.1398933941866836e-08
 3827.6553106212423   3.2391682984715806    630802240.0    1.0106566012762706e-07
 3923.8476953907816   3.15976069973479    1984804480.0    3.1800073347151013e-07
 4020.0400801603209   3.0841532652446251    653522176.0    1.0470579515615429e-07
 4116.2324649298598   3.0120795764755202    338127712.0    5.417403150109956e-08
 4212.4248496993987   2.9432975499908269    2210496768.0    3.5416062420435615e-07
 4308.6172344689385   2.8775867209677757    1265515008.0    2.0275785590891251e-07
 4404.8096192384764   2.8147458826572884    102450840.0    1.641443406293215e-08
 4501.0020040080162   2.7545910285310411    2260561152.0    3.621818227623115e-07
 4597.1943887775551   2.6969535527814816    2083618304.0    3.3383245333397474e-07
 4693.386773547094   2.6416786721096153    32712996.0    5.241199738752392e-09
 4789.5791583166338   2.5886240376906771    2098359168.0    3.36194200101094e-07
 4885.7715430861717   2.5376585111077596    3065882112.0    4.912084641975327e-07
 4981.9639278557115   2.4886610820920021    264038640.0    4.230365359958277e-08
 5078.1563126252504   2.4415199092662658    1715357056.0    2.748304971447516e-07
 5174.3486973947893   2.3961314678856387    4144537600.0    6.640281246746542e-07
 5270.5410821643291   2.3523997909052161    962827008.0    1.5426189220924145e-07
 5366.7334669338679   2.3102357916656899    1152875008.0    1.8471093845222131e-07
 5462.9258517034068   2.269556658136727    5219294720.0    8.362231977448882e-07
 5559.1182364729457   2.2302853100507276    2324819456.0    3.7247713799841743e-07
 5655.3106212424846   2.1923499114389506    527707872.0    8.45481215130519e-08
 5751.5030060120243   2.1556834320838738    6157001728.0    9.8646042228268e-07
 5847.6953907815632   2.1202232522552156    4609676800.0    7.385516398404158e-07
 5943.8877755511021   2.0859108058262703    79146928.0    1.268073576497409e-08
 6040.0801603206419   2.0526912574919436    6800270848.0    1.089523496777339e-06
 6136.2725450901808   2.0205132103464134    8188758528.0    1.3119837466938225e-06
 6232.4649298597196   1.9893284405404239    279998208.0    4.486065827234956e-08
 6328.6573146292585   1.9590916561370229    6965293568.0    1.1159630511658216e-06
 6424.8496993987974   1.929760277629669    13710884864.0    2.1967259179581386e-06
 6521.0420841683363   1.9012942378859001    2123058048.0    3.4015139691068845e-07
 6617.234468937876   1.8736557995398904    6433906176.0    1.030825405560793e-06
 6713.4268537074149   1.8468093880837964    22547824640.0    3.6125597488106178e-06
 6809.6192384769538   1.8207214391055675    8029097984.0    1.2864033076077215e-06
 6905.8116232464927   1.7953602582938823    4947115520.0    7.926152826540835e-07
 7002.0040080160325   1.7706958929824608    38354006016.0    6.144989175285775e-06
 7098.1963927855713   1.7467000141391074    25611059200.0    4.103344028416475e-06
 7194.3887775551102   1.723345807821927    2314633472.0    3.7084516345595317e-07
 7290.5811623246491   1.7006078752283447    74555703296.0    1.1945140476815271e-05
 7386.773547094188   1.6784621405536404    91162124288.0    1.4605782423669745e-05
 7482.9659318637277   1.6568857659562715    670312576.0    1.0739591378954233e-07
 7579.1583166332666   1.6358570729986035    226091532288.0    3.6223856719268195e-05
 7675.3507014028055   1.6153554699949657    669276241920.0    0.00010722987476611089
 7771.5430861723444   1.5953613847552137    176227123200.0    2.823469767418813e-05
 7867.7354709418842   1.5758562022620271    196705358184448.0    0.03151567260692126
 7963.927855711423   1.5568222068648008    3870329667584.0    0.000620095170819172
 8060.1202404809619   1.5382425286128092    182174859264.0    2.918763004103111e-05
 8156.3126252505008   1.5201010933859258    93066067968.0    1.4910827828811337e-05
 8252.5050100200388   1.502382576513045    213309767680.0    3.417599227651755e-05
 8348.6973947895785   1.4850723595969082    54340259840.0    8.706269388384515e-06
 8444.8897795591183   1.4681564902896815    8154204160.0    1.3064475266382102e-06
 8541.0821643286581   1.4516216447866535    62868500480.0    1.0072644165380958e-05
 8637.2745490981961   1.4354550928261527    32307802112.0    5.176280521327927e-06
 8733.4669338677359   1.4196446650024592    448994560.0    7.193685868983829e-08
 8829.6593186372738   1.4041787222153244    25365870592.0    4.064060482874066e-06
 8925.8517034068136   1.3890461270949075    22408519680.0    3.59024063380327e-06
 9022.0440881763534   1.3742362172547131    651240704.0    1.0434026304621332e-07
 9118.2364729458914   1.3597387802375205    10973734912.0    1.7581861518863145e-06
 9214.4288577154311   1.3455440300306041    16143680512.0    2.5865027489990978e-06
 9310.6212424849691   1.3316425850367455    2003201024.0    3.20948184741542e-07
 9406.8136272545089   1.3180254473968296    4531784704.0    7.260719503247849e-07
 9503.0060120240487   1.3046839835682662    11567590400.0    1.8533322897870522e-06
 9599.1983967935885   1.291609906071131    3186510592.0    5.105352772433968e-07
 9695.3907815631264   1.2787952563209422    1622127360.0    2.5989345321520255e-07
 9791.5831663326644   1.266232388473336    8068405248.0    1.2927010255485626e-06
 9887.7755511022042   1.2539139542117388    3906601216.0    6.259065135064051e-07
 9983.967935871744   1.2418328884144354    477921888.0    7.657152755221961e-08
 10080.160320641284   1.2299823956422897    5402740736.0    8.656144895462986e-07
 10176.352705410822   1.2183559373928159    4164429824.0    6.672152102975059e-07
 10272.545090180362   1.2069472200703704    227588768.0    3.646374032462752e-08
 10368.737474949899   1.1957501836259603    3426168832.0    5.489327601544044e-07
 10464.929859719439   1.1847589908235767    4060664064.0    6.505901028263515e-07
 10561.122244488977   1.1739680170931155    406579840.0    6.514127141366047e-08
 10657.314629258517   1.1633718409328164    2009164544.0    3.219036459737093e-07
 10753.507014028057   1.1529652348268205    3712034304.0    5.9473345774764e-07
 10849.699398797595   1.1427431566458661    763632064.0    1.2234734398340494e-07
 10945.891783567135   1.1327007415014132    1042351232.0    1.670030774572477e-07
 11042.084168336673   1.1228332940255388    3207921152.0    5.139656271104203e-07
 11138.276553106212   1.1131362810508669    1169901312.0    1.8743885307296465e-07
 11234.468937875752   1.1036053246665569    432004096.0    6.921468627010389e-08
 11330.66132264529   1.0942361956280011    2605129728.0    4.173877944352663e-07
 11426.85370741483   1.0850248070993893    1549308672.0    2.482266132681096e-07
 11523.04609218437   1.0759672087096901    124264360.0    1.990934523906747e-08
 11619.238476953908   1.0670595809038839    1942598144.0    3.112385329926272e-07
 11715.430861723447   1.0582982295724801    1834382080.0    2.9390040821904754e-07
 11811.623246492985   1.049679580943454    87867456.0    1.4077918373237269e-08
 11907.815631262525   1.0412001767217633    1281315968.0    2.0528944877873212e-07
 12004.008016032065   1.0328566694625572    1959392128.0    3.139292258461161e-07
 12100.200400801603   1.0246458181650742    275112224.0    4.407783733890927e-08
 12196.392785571143   1.0165644840750441    703795200.0    1.1276042152712602e-07
 12292.585170340681   1.0086096266841731    1879344000.0    3.0110410192407553e-07
 12388.77755511022   1.0007782999160011    598099968.0    9.582617856308282e-08
 12484.96993987976   0.99306764848807672    297867072.0    4.772356588645503e-08
 12581.162324649298   0.98547490444101915    1607289856.0    2.575162230132199e-07
 12677.354709418838   0.97799738382559565    937971584.0    1.5027961428595435e-07
 12773.547094188376   0.9706324835394915    124050608.0    1.9875098393362546e-08
 12869.739478957916   0.96337767830593557    1215662848.0    1.9477065938407444e-07
 12965.931863727455   0.95623051778681889    1175022080.0    1.8825929054997874e-07
 13062.124248496993   0.94918862382336888    170771072.0    2.7360541906735352e-08
 13158.316633266533   0.94224968779785534    818138624.0    1.3108025759462818e-07
 13254.509018036073   0.93541146811017806    1240198656.0    1.9870172917907817e-07
 13350.701402805611   0.92867178776354231    355124896.0    5.689728058352315e-08
 13446.893787575151   0.92202853205375823    531226752.0    8.511190823979197e-08
 13543.086172344689   0.91547964635701662    1143142784.0    1.8315166427610243e-07
 13639.278557114229   0.90902313401127222    557632704.0    8.934260813422866e-08
 13735.470941883768   0.90265705428665266    403730656.0    6.468478181434473e-08
 13831.663326653306   0.89637952044055602    963565376.0    1.5438019180395615e-07
 13927.855711422846   0.89018869785334065    682361536.0    1.0932636999123776e-07
 14024.048096192384   0.88408280224074276    407415616.0    6.527517749040304e-08
 14120.240480961924   0.87806009793935835    811622656.0    1.3003628443548008e-07
 14216.432865731464   0.87211889626173078    702162176.0    1.1249878223972549e-07
 14312.625250501002   0.86625755391777082    450855712.0    7.22350481120538e-08
 14408.817635270541   0.86047447149940448    748752000.0    1.1996329491772415e-07
 14505.010020040079   0.85476809202552062    673827968.0    1.0795914167707706e-07
 14601.202404809619   0.84913689954443017    449547328.0    7.202542188647092e-08
 14697.394789579159   0.84357941779120782    767625344.0    1.2298713796903574e-07
 14793.587174348697   0.83809420889741515    689615360.0    1.1048856071365755e-07
 14889.779559118237   0.83267987215083694    381084672.0    6.105649520236365e-08
 14985.971943887776   0.82733504280298453    795846784.0    1.2750871110636676e-07
 15082.164328657314   0.8220583909222321    823665536.0    1.319657665137901e-07
 15178.356713426854   0.81684862029056216    300568672.0    4.815640992233036e-08
 15274.549098196392   0.8117044673419993    795039808.0    1.273794192982921e-07
 15370.741482965932   0.80662470014090193    1203830272.0    1.9287487172097048e-07
 15466.933867735472   0.80160811739838267    335582496.0    5.3766242944090956e-08
 15563.12625250501   0.79665354752520201    1255606528.0    2.0117034240854608e-07
 15659.318637274549   0.79175984771956975    7181929984.0    1.150672031258732e-06
 15755.511022044087   0.78692590308836408    408718213120.0    6.548387655560158e-05
 15851.703406813627   0.78215062580034367    2010206208.0    3.220705389444622e-07
 15947.895791583167   0.77743295427000725    2376560384.0    3.80766948516427e-07
 16044.088176352705   0.7727718523708117    972547712.0    1.5581932067789317e-07
 16140.280561122245   0.76816630867652325    140489552.0    2.250890756810659e-08
 16236.472945891783   0.76361533572953821    939980224.0    1.5060143389071472e-07
 16332.665330661323   0.75911796933505749    1139127936.0    1.8250841471593589e-07
 16428.857715430862   0.7546732678800584    203650944.0    3.2628478128065e-08
 16525.050100200402   0.75028031167605114    457487808.0    7.329762702786393e-08
 16621.242484969938   0.74593820232465868    1214869504.0    1.9464355166316924e-07
 16717.434869739482   0.74164606210509676    530905312.0    8.506040787449298e-08
 16813.627254509018   0.73740303338268398    155568144.0    2.4924764325804782e-08
 16909.819639278558   0.73320827803753474    1045896384.0    1.6757107342240592e-07
 17006.012024048097   0.72906097691264649    934345600.0    1.4969866760673487e-07
 17102.204408817634   0.72496032928060916    128932728.0    2.0657300245756555e-08
 17198.396793587177   0.7209055523282123    686559104.0    1.0999889452261957e-07
 17294.589178356713   0.71689588065825249    1195871872.0    1.9159979547907304e-07
 17390.781563126253   0.71293056580787251    409429696.0    6.559786867924513e-08
 17486.973947895793   0.70900887578280058    340410720.0    5.4539809705369505e-08
 17583.166332665329   0.7051300946068747    1160721664.0    1.859681113316873e-07
 17679.358717434872   0.70129352188627492    853801600.0    1.3679409623216334e-07
 17775.551102204408   0.69749847238790508    236037376.0    3.7817356546217906e-08
 17871.743486973948   0.69374427563138796    851066112.0    1.3635582274015544e-07
 17967.935871743488   0.69003027549416884    1210705280.0    1.939763694295118e-07
 18064.128256513024   0.68635582982923438    487014464.0    7.802831882122433e-08
 18160.320641282568   0.68272031009498091    483746496.0    7.750473262851208e-08
 18256.513026052104   0.67912310099678574    1249786624.0    2.0023789099613605e-07
 18352.705410821643   0.67556360013984695    983958976.0    1.5764760671735084e-07
 18448.897795591183   0.67204121769288705    350472448.0    5.615187624201438e-08
 18545.090180360723   0.66855537606232096    943363072.0    1.5114342588844672e-07
 18641.282565130259   0.66510550957651249    1431229056.0    2.293081732532854e-07
 18737.474949899799   0.66169106417975598    642661696.0    1.029657544414877e-07
 18833.667334669339   0.65831149713563719    511525024.0    8.195534344069589e-08
 18929.859719438879   0.65496627673943664    1521051008.0    2.4369923640618737e-07
 19026.052104208418   0.65165488203925825    1285723392.0    2.059955959478074e-07
 19122.244488977954   0.64837680256557517    336644128.0    5.393633514112027e-08
 19218.436873747494   0.64513153806889667    1151616128.0    1.8450924364178205e-07
 19314.629258517034   0.64191859826527486    1932601728.0    3.0963693059192806e-07
 19410.821643286574   0.63873750258937834    716266624.0    1.1475856392321442e-07
 19507.014028056114   0.63558777995487137    551275904.0    8.832413649991852e-08
 19603.20641282565   0.6324689685218482    2150229504.0    3.44504744066318e-07
 19699.39879759519   0.62938061547108026    1638903808.0    2.625813364917692e-07
 19795.591182364729   0.62632227678484698    222753824.0    3.5689096900659795e-08
 19891.783567134269   0.62329351703412439    1709396224.0    2.7387546657766004e-07
 19987.975951903809   0.62029390917191873    2695269120.0    4.3182971708281897e-07
 20084.168336673345   0.61732303433254021    661284096.0    1.0594939183180628e-07
 20180.360721442885   0.61438048163661552    822481280.0    1.3177602778616587e-07
 20276.553106212425   0.61146584800165238    3255859456.0    5.216461901013806e-07
 20372.745490981964   0.60857873795796957    2005000576.0    3.2123650475577336e-07
 20468.937875751504   0.60571876346981768    167372288.0    2.6815996680340442e-08
 20565.13026052104   0.60288554376152004    2843244032.0    4.5553791152995274e-07
 20661.32264529058   0.60007870514846928    3803981056.0    6.094649513889296e-07
 20757.51503006012   0.59729788087282476    583482432.0    9.348419111979258e-08
 20853.70741482966   0.59454271094375533    1571569792.0    2.5179323786979187e-07
 20949.899799599199   0.59181284198208517    5133246976.0    8.224368293739499e-07
 21046.092184368739   0.58910792706919812    2568229376.0    4.114757063078973e-07
 21142.284569138275   0.58642762560006811    338004864.0    5.415434908174836e-08
 21238.476953907815   0.58377160314028287    5048172544.0    8.08806402776126e-07
 21334.669338677355   0.58113953128693574    5797899264.0    9.289258650534328e-07
 21430.861723446895   0.57853108753326332    620563776.0    9.942527736225682e-08
 21527.054108216435   0.57594595513691282    3293078272.0    5.276093017862864e-07
 21623.246492985971   0.57338382299172552    8974967808.0    1.4379483594410225e-06
 21719.43887775551   0.5708443855029266    3864159232.0    6.191065580558884e-07
 21815.63126252505   0.568327342465618    962333952.0    1.5418289592964694e-07
 21911.82364729459   0.56583239894647142    10234759168.0    1.639789185848806e-06
 22008.01603206413   0.56335926516852286    10638545920.0    1.7044829552331228e-06
 22104.208416833666   0.56090765639897722    868536128.0    1.3915482786017563e-07
 22200.400801603206   0.55847729283992764    8124541952.0    1.3016951170203196e-06
 22296.593186372746   0.55606789952190527    19925211136.0    3.192370744660301e-06
 22392.785571142285   0.55367920620017164    7670296064.0    1.228916902835506e-06
 22488.977955911825   0.55131094725367291    3258095616.0    5.220044624286174e-07
 22585.170340681361   0.54896286158657659    28835244032.0    4.619915384313313e-06
 22681.362725450901   0.546634692532313    28693788672.0    4.597251737245428e-06
 22777.555110220441   0.54432618776004915    1692961280.0    2.712422982735643e-07
 22873.747494989981   0.54203709918352183    32747769856.0    5.246771124662218e-06
 22969.93987975952   0.53976718287216174    80127057920.0    1.2837769889291148e-05
 23066.132264529057   0.53751619896444125    30004815872.0    4.807301450152717e-06
 23162.324649298596   0.53528391158338107    25551564800.0    4.093811974741623e-06
 23258.517034068136   0.53307008875415463    239308570624.0    3.8341459701083844e-05
 23354.709418837676   0.53087450232372735    314423410688.0    5.0376183763651045e-05
 23450.901803607216   0.52869692788247458    24201076736.0    3.877439934460598e-06
 23547.094188376752   0.52653714468772073    3187466043392.0    0.0005106883574316541
 23643.286573146292   0.52439493558914374    145632492781568.0    0.0233328975163453
 23739.478957915831   0.52227008695599519    583946469376.0    9.355853810329303e-05
 23835.671342685371   0.52016238860608022    171065229312.0    2.7407671103547727e-05
 23931.863727454911   0.51807163373645271    366394179584.0    5.8702818852668155e-05
 24028.056112224447   0.515997618855773    131467247616.0    2.1063375053127977e-05
 24124.248496993987   0.51394014371828534    3150635520.0    5.047874570806051e-07
 24220.440881763527   0.51189901125936776    66662211584.0    1.0680463689070775e-05
 24316.633266533066   0.50987402753261235    69201100800.0    1.1087238583538418e-05
 24412.825651302606   0.50786500164839254    9228845056.0    1.478623978570887e-06
